S V(S) theta
2.742964710699542508e-01 5.543581443823955013e+00 5.000000000000000000e-01
2.773375310755182288e-01 5.482398921258472058e+00 5.000000000000000000e-01
2.803783701850477983e-01 5.422543593268525974e+00 5.000000000000000000e-01
2.834189860016215201e-01 5.363972647955724149e+00 5.000000000000000000e-01
2.864593761283186768e-01 5.306645095216114605e+00 5.000000000000000000e-01
2.894995381682185509e-01 5.250521670855446743e+00 5.000000000000000000e-01
2.925394697244007025e-01 5.195564746697278302e+00 5.000000000000000000e-01
2.955791683999444697e-01 5.141738246251460254e+00 5.000000000000000000e-01
2.986186317979290794e-01 5.089007565545812461e+00 5.000000000000000000e-01
3.016578575214339808e-01 5.037339498755905254e+00 5.000000000000000000e-01
3.046968431735385674e-01 4.986702168297111548e+00 5.000000000000000000e-01
3.077355863583473017e-01 4.937064959075382120e+00 5.000000000000000000e-01
3.107740846863026318e-01 4.888398456595935748e+00 5.000000000000000000e-01
3.138123357701383953e-01 4.840674388677293827e+00 5.000000000000000000e-01
3.168503372225897063e-01 4.793865570539794341e+00 5.000000000000000000e-01
3.198880866563916237e-01 4.747945853023914253e+00 5.000000000000000000e-01
3.229255816842792060e-01 4.702890073739633081e+00 5.000000000000000000e-01
3.259628199189875120e-01 4.658674010955145661e+00 5.000000000000000000e-01
3.289997989732516559e-01 4.615274340047315960e+00 5.000000000000000000e-01
3.320365164598066410e-01 4.572668592349408812e+00 5.000000000000000000e-01
3.350729699913875259e-01 4.530835116243495442e+00 5.000000000000000000e-01
3.381091571818713448e-01 4.489753040360618286e+00 5.000000000000000000e-01
3.411450756520845728e-01 4.449402238744162297e+00 5.000000000000000000e-01
3.441807230253552952e-01 4.409763297863564802e+00 5.000000000000000000e-01
3.472160969250129847e-01 4.370817485373962974e+00 5.000000000000000000e-01
3.502511949743871700e-01 4.332546720498902992e+00 5.000000000000000000e-01
3.532860147968073794e-01 4.294933545944981113e+00 5.000000000000000000e-01
3.563205540156032525e-01 4.257961101256788616e+00 5.000000000000000000e-01
3.593548102541041511e-01 4.221613097526717873e+00 5.000000000000000000e-01
3.623887811356397703e-01 4.185873793379917274e+00 5.000000000000000000e-01
3.654224642835395831e-01 4.150727972160032309e+00 5.000000000000000000e-01
3.684558573223868927e-01 4.116160920249960498e+00 5.000000000000000000e-01
3.714889578843200146e-01 4.082158406451687149e+00 5.000000000000000000e-01
3.745217636041923148e-01 4.048706662373110277e+00 5.000000000000000000e-01
3.775542721168588245e-01 4.015792363772167306e+00 5.000000000000000000e-01
3.805864810571749079e-01 3.983402612790382769e+00 5.000000000000000000e-01
3.836183880599957075e-01 3.951524921032472548e+00 5.000000000000000000e-01
3.866499907601763097e-01 3.920147193445331357e+00 5.000000000000000000e-01
3.896812867925719126e-01 3.889257712952721047e+00 5.000000000000000000e-01
3.927122737920378248e-01 3.858845125804644560e+00 5.000000000000000000e-01
3.957429493934290221e-01 3.828898427602915877e+00 5.000000000000000000e-01
3.987733112329617802e-01 3.799406949969827085e+00 5.000000000000000000e-01
4.018033569550055750e-01 3.770360347816462454e+00 5.000000000000000000e-01
4.048330842068620372e-01 3.741748587187009090e+00 5.000000000000000000e-01
4.078624906358347402e-01 3.713561933654385694e+00 5.000000000000000000e-01
4.108915738892276459e-01 3.685790941226211537e+00 5.000000000000000000e-01
4.139203316143444944e-01 3.658426441740231905e+00 5.000000000000000000e-01
4.169487614584889146e-01 3.631459534724185811e+00 5.000000000000000000e-01
4.199768610689646464e-01 3.604881577696559258e+00 5.000000000000000000e-01
4.230046280930756519e-01 3.578684176886032908e+00 5.000000000000000000e-01
4.260320601781255045e-01 3.552859178348681812e+00 5.000000000000000000e-01
4.290591549728813847e-01 3.527398659465652564e+00 5.000000000000000000e-01
4.320859101348547560e-01 3.502294920794362110e+00 5.000000000000000000e-01
4.351123233247095601e-01 3.477540478263723589e+00 5.000000000000000000e-01
4.381383922031121814e-01 3.453128055700591226e+00 5.000000000000000000e-01
4.411641144307288376e-01 3.429050577660555099e+00 5.000000000000000000e-01
4.441894876682260240e-01 3.405301162553348249e+00 5.000000000000000000e-01
4.472145095762701805e-01 3.381873116048877304e+00 5.000000000000000000e-01
4.502391778155275803e-01 3.358759924750577497e+00 5.000000000000000000e-01
4.532634900466646077e-01 3.335955250123546989e+00 5.000000000000000000e-01
4.562874439303477025e-01 3.313452922665562017e+00 5.000000000000000000e-01
4.593110371288042226e-01 3.291246936311758020e+00 5.000000000000000000e-01
4.623342673135891201e-01 3.269331443054880548e+00 5.000000000000000000e-01
4.653571321596330357e-01 3.247700747779072028e+00 5.000000000000000000e-01
4.683796293418693857e-01 3.226349303300145799e+00 5.000000000000000000e-01
4.714017565352316974e-01 3.205271705593325748e+00 5.000000000000000000e-01
4.744235114146536092e-01 3.184462689204527575e+00 5.000000000000000000e-01
4.774448916550684818e-01 3.163917122837024198e+00 5.000000000000000000e-01
4.804658949314099536e-01 3.143630005105707337e+00 5.000000000000000000e-01
4.834865189186115519e-01 3.123596460451579571e+00 5.000000000000000000e-01
4.865067612916068041e-01 3.103811735209460743e+00 5.000000000000000000e-01
4.895266197269829145e-01 3.084271193823908686e+00 5.000000000000000000e-01
4.925460919112301661e-01 3.064970315200323814e+00 5.000000000000000000e-01
4.955651755344398501e-01 3.045904689193382087e+00 5.000000000000000000e-01
4.985838682867070881e-01 3.027070013228431833e+00 5.000000000000000000e-01
5.016021678581267240e-01 3.008462089041546772e+00 5.000000000000000000e-01
5.046200719387938793e-01 2.990076819537393682e+00 5.000000000000000000e-01
5.076375782188038421e-01 2.971910205760004864e+00 5.000000000000000000e-01
5.106546843882513453e-01 2.953958343971749390e+00 5.000000000000000000e-01
5.136713881372315660e-01 2.936217422836004953e+00 5.000000000000000000e-01
5.166876871558394591e-01 2.918683720699284834e+00 5.000000000000000000e-01
5.197035791359120305e-01 2.901353602970078160e+00 5.000000000000000000e-01
5.227190617797552452e-01 2.884223519584405704e+00 5.000000000000000000e-01
5.257341327935048936e-01 2.867290002562702167e+00 5.000000000000000000e-01
5.287487898833012068e-01 2.850549663654850185e+00 5.000000000000000000e-01
5.317630307552843050e-01 2.833999192061994687e+00 5.000000000000000000e-01
5.347768531155941973e-01 2.817635352236016910e+00 5.000000000000000000e-01
5.377902546703711151e-01 2.801454981753595419e+00 5.000000000000000000e-01
5.408032331257551784e-01 2.785454989261952896e+00 5.000000000000000000e-01
5.438157861878866184e-01 2.769632352493454963e+00 5.000000000000000000e-01
5.468279115629053333e-01 2.753984116346397393e+00 5.000000000000000000e-01
5.498396069587769830e-01 2.738507391030512217e+00 5.000000000000000000e-01
5.528508700944929632e-01 2.723199350269055685e+00 5.000000000000000000e-01
5.558616986931058657e-01 2.708057229563671786e+00 5.000000000000000000e-01
5.588720904776729448e-01 2.693078324519251776e+00 5.000000000000000000e-01
5.618820431712515662e-01 2.678259989219344828e+00 5.000000000000000000e-01
5.648915544968992064e-01 2.663599634653959658e+00 5.000000000000000000e-01
5.679006221776734531e-01 2.649094727197825350e+00 5.000000000000000000e-01
5.709092439366316718e-01 2.634742787137219100e+00 5.000000000000000000e-01
5.739174174968312281e-01 2.620541387243566778e+00 5.000000000000000000e-01
5.769251405813295985e-01 2.606488151392092334e+00 5.000000000000000000e-01
5.799324109150882922e-01 2.592580753224735801e+00 5.000000000000000000e-01
5.829392262346423381e-01 2.578816914850415642e+00 5.000000000000000000e-01
5.859455842808205528e-01 2.565194405589917626e+00 5.000000000000000000e-01
5.889514827944581921e-01 2.551711040762580041e+00 5.000000000000000000e-01
5.919569195163898456e-01 2.538364680506690618e+00 5.000000000000000000e-01
5.949618921874508803e-01 2.525153228635974134e+00 5.000000000000000000e-01
5.979663985484759969e-01 2.512074631530923252e+00 5.000000000000000000e-01
6.009704363403002292e-01 2.499126877063720276e+00 5.000000000000000000e-01
6.039740033037584999e-01 2.486307993555581852e+00 5.000000000000000000e-01
6.069770971796857317e-01 2.473616048765391540e+00 5.000000000000000000e-01
6.099797157108953760e-01 2.461049148909190354e+00 5.000000000000000000e-01
6.129818566523107526e-01 2.448605437704449272e+00 5.000000000000000000e-01
6.159835177633856684e-01 2.436283095447158598e+00 5.000000000000000000e-01
6.189846968035801478e-01 2.424080338118696609e+00 5.000000000000000000e-01
6.219853915323542148e-01 2.411995416515309465e+00 5.000000000000000000e-01
6.249855997091678939e-01 2.400026615402943708e+00 5.000000000000000000e-01
6.279853190934815421e-01 2.388172252696572517e+00 5.000000000000000000e-01
6.309845474447550728e-01 2.376430678663207008e+00 5.000000000000000000e-01
6.339832825224488433e-01 2.364800275147788344e+00 5.000000000000000000e-01
6.369815220860227667e-01 2.353279454821198602e+00 5.000000000000000000e-01
6.399792638969854508e-01 2.341866660450165671e+00 5.000000000000000000e-01
6.429765057294816177e-01 2.330560364183528854e+00 5.000000000000000000e-01
6.459732453624231763e-01 2.319359066863536434e+00 5.000000000000000000e-01
6.489694805747301398e-01 2.308261297358761066e+00 5.000000000000000000e-01
6.519652091453224108e-01 2.297265611912201688e+00 5.000000000000000000e-01
6.549604288531197804e-01 2.286370593507481175e+00 5.000000000000000000e-01
6.579551374770418182e-01 2.275574851252573083e+00 5.000000000000000000e-01
6.609493327960086484e-01 2.264877019780489498e+00 5.000000000000000000e-01
6.639430125889401735e-01 2.254275758666392182e+00 5.000000000000000000e-01
6.669361746347559627e-01 2.243769751860615003e+00 5.000000000000000000e-01
6.699288167144896722e-01 2.233357707137419990e+00 5.000000000000000000e-01
6.729209366223261046e-01 2.223038355554383561e+00 5.000000000000000000e-01
6.759125321574569467e-01 2.212810450931597117e+00 5.000000000000000000e-01
6.789036011190826558e-01 2.202672769346839310e+00 5.000000000000000000e-01
6.818941413064035784e-01 2.192624108640858882e+00 5.000000000000000000e-01
6.848841505186199496e-01 2.182663287935765695e+00 5.000000000000000000e-01
6.878736265549323381e-01 2.172789147166159562e+00 5.000000000000000000e-01
6.908625672145409791e-01 2.163000546622601661e+00 5.000000000000000000e-01
6.938509702966463299e-01 2.153296366507049253e+00 5.000000000000000000e-01
6.968388336004486261e-01 2.143675506499886918e+00 5.000000000000000000e-01
6.998261549273230298e-01 2.134136885338441925e+00 5.000000000000000000e-01
7.028129320922994472e-01 2.124679440402104547e+00 5.000000000000000000e-01
7.057991629156556979e-01 2.115302127313738012e+00 5.000000000000000000e-01
7.087848452176791492e-01 2.106003919553099735e+00 5.000000000000000000e-01
7.117699768186572795e-01 2.096783808076809752e+00 5.000000000000000000e-01
7.147545555388779004e-01 2.087640800947964337e+00 5.000000000000000000e-01
7.177385791986280461e-01 2.078573922975136323e+00 5.000000000000000000e-01
7.207220456181956392e-01 2.069582215360465494e+00 5.000000000000000000e-01
7.237049526178679359e-01 2.060664735356603661e+00 5.000000000000000000e-01
7.266872980179326369e-01 2.051820555932222678e+00 5.000000000000000000e-01
7.296690796409085467e-01 2.043048765445974801e+00 5.000000000000000000e-01
7.326502953234610427e-01 2.034348467324225140e+00 5.000000000000000000e-01
7.356309429077455553e-01 2.025718779752658794e+00 5.000000000000000000e-01
7.386110202359287280e-01 2.017158835377057979e+00 5.000000000000000000e-01
7.415905251501768713e-01 2.008667781008111053e+00 5.000000000000000000e-01
7.445694554926566289e-01 2.000244777333405111e+00 5.000000000000000000e-01
7.475478091055345331e-01 1.991888998636416996e+00 5.000000000000000000e-01
7.505255838309770056e-01 1.983599632522309530e+00 5.000000000000000000e-01
7.535027775111504678e-01 1.975375879650329347e+00 5.000000000000000000e-01
7.564793879882211192e-01 1.967216953472636698e+00 5.000000000000000000e-01
7.594554131066397762e-01 1.959122079979386699e+00 5.000000000000000000e-01
7.624308507254825562e-01 1.951090497445538086e+00 5.000000000000000000e-01
7.654056987095591014e-01 1.943121456189891294e+00 5.000000000000000000e-01
7.683799549236911552e-01 1.935214218341221093e+00 5.000000000000000000e-01
7.713536172327012386e-01 1.927368057606628327e+00 5.000000000000000000e-01
7.743266835014109839e-01 1.919582259045310657e+00 5.000000000000000000e-01
7.772991515946426899e-01 1.911856118847611086e+00 5.000000000000000000e-01
7.802710193772182112e-01 1.904188944119211024e+00 5.000000000000000000e-01
7.832422847139596245e-01 1.896580052670321370e+00 5.000000000000000000e-01
7.862129454696888953e-01 1.889028772809743684e+00 5.000000000000000000e-01
7.891829995115600127e-01 1.881534443143586310e+00 5.000000000000000000e-01
7.921524447218201148e-01 1.874096412374191445e+00 5.000000000000000000e-01
7.951212789886935584e-01 1.866714039110182410e+00 5.000000000000000000e-01
7.980895002004186889e-01 1.859386691682062720e+00 5.000000000000000000e-01
8.010571062452340740e-01 1.852113747958714196e+00 5.000000000000000000e-01
8.040240950113777263e-01 1.844894595168022011e+00 5.000000000000000000e-01
8.069904643870883243e-01 1.837728629721525841e+00 5.000000000000000000e-01
8.099562122606038805e-01 1.830615257043002098e+00 5.000000000000000000e-01
8.129213365201628516e-01 1.823553891400869764e+00 5.000000000000000000e-01
8.158858350540038051e-01 1.816543955744323924e+00 5.000000000000000000e-01
8.188497057527407419e-01 1.809584881542939616e+00 5.000000000000000000e-01
8.218129465225355590e-01 1.802676108625351326e+00 5.000000000000000000e-01
8.247755552757716213e-01 1.795817085028301952e+00 5.000000000000000000e-01
8.277375299248482809e-01 1.789007266850088707e+00 5.000000000000000000e-01
8.306988683821646680e-01 1.782246118103933297e+00 5.000000000000000000e-01
8.336595685601199124e-01 1.775533110574514906e+00 5.000000000000000000e-01
8.366196283711132553e-01 1.768867723677613135e+00 5.000000000000000000e-01
8.395790457275441598e-01 1.762249444322783409e+00 5.000000000000000000e-01
8.425378185418114230e-01 1.755677766778986237e+00 5.000000000000000000e-01
8.454959447263143968e-01 1.749152192543096840e+00 5.000000000000000000e-01
8.484534221958682787e-01 1.742672230210993156e+00 5.000000000000000000e-01
8.514102488812764769e-01 1.736237395346857948e+00 5.000000000000000000e-01
8.543664227198093375e-01 1.729847210362347232e+00 5.000000000000000000e-01
8.573219416487548594e-01 1.723501204399293218e+00 5.000000000000000000e-01
8.602768036054005973e-01 1.717198913211578803e+00 5.000000000000000000e-01
8.632310065270347721e-01 1.710939879049466539e+00 5.000000000000000000e-01
8.661845483509449384e-01 1.704723650546351665e+00 5.000000000000000000e-01
8.691374270144189840e-01 1.698549782607874370e+00 5.000000000000000000e-01
8.720896404547447966e-01 1.692417836303333534e+00 5.000000000000000000e-01
8.750411866092103752e-01 1.686327378759351348e+00 5.000000000000000000e-01
8.779920634175555350e-01 1.680277983055433744e+00 5.000000000000000000e-01
8.809422688359354048e-01 1.674269228117072572e+00 5.000000000000000000e-01
8.838918008272178550e-01 1.668300698618399469e+00 5.000000000000000000e-01
8.868406573542902960e-01 1.662371984887706544e+00 5.000000000000000000e-01
8.897888363800396938e-01 1.656482682811569074e+00 5.000000000000000000e-01
8.927363358673531257e-01 1.650632393740885329e+00 5.000000000000000000e-01
8.956831537791176689e-01 1.644820724398818435e+00 5.000000000000000000e-01
8.986292880782205117e-01 1.639047286790593638e+00 5.000000000000000000e-01
9.015747367275486202e-01 1.633311698115106569e+00 5.000000000000000000e-01
9.045194976899892936e-01 1.627613580678299643e+00 5.000000000000000000e-01
9.074635689309140663e-01 1.621952561807910698e+00 5.000000000000000000e-01
9.104069484325229000e-01 1.616328273765232248e+00 5.000000000000000000e-01
9.133496341839738575e-01 1.610740353666235913e+00 5.000000000000000000e-01
9.162916241744464285e-01 1.605188443405050736e+00 5.000000000000000000e-01
9.192329163931201030e-01 1.599672189575589210e+00 5.000000000000000000e-01
9.221735088291742599e-01 1.594191243394694757e+00 5.000000000000000000e-01
9.251133994717881670e-01 1.588745260626784672e+00 5.000000000000000000e-01
9.280525863101412032e-01 1.583333901509966335e+00 5.000000000000000000e-01
9.309910673334130804e-01 1.577956830683588940e+00 5.000000000000000000e-01
9.339288405307827334e-01 1.572613717117199883e+00 5.000000000000000000e-01
9.368659038939427530e-01 1.567304234040459043e+00 5.000000000000000000e-01
9.398022554318131716e-01 1.562028058869636693e+00 5.000000000000000000e-01
9.427378931605171486e-01 1.556784873143383541e+00 5.000000000000000000e-01
9.456728150962013801e-01 1.551574362460453882e+00 5.000000000000000000e-01
9.486070192550126734e-01 1.546396216415225178e+00 5.000000000000000000e-01
9.515405036530975025e-01 1.541250128534416453e+00 5.000000000000000000e-01
9.544732663066026745e-01 1.536135796215007066e+00 5.000000000000000000e-01
9.574053052316747747e-01 1.531052920663327654e+00 5.000000000000000000e-01
9.603366184444604992e-01 1.526001206835297275e+00 5.000000000000000000e-01
9.632672039611065440e-01 1.520980363377783862e+00 5.000000000000000000e-01
9.661970598002974642e-01 1.515990102570601072e+00 5.000000000000000000e-01
9.691261839983297266e-01 1.511030140264733257e+00 5.000000000000000000e-01
9.720545745989487285e-01 1.506100195829803701e+00 5.000000000000000000e-01
9.749822296459245141e-01 1.501199992103192660e+00 5.000000000000000000e-01
9.779091471830276827e-01 1.496329255336655173e+00 5.000000000000000000e-01
9.808353252540289446e-01 1.491487715143896997e+00 5.000000000000000000e-01
9.837607619026985661e-01 1.486675104449117546e+00 5.000000000000000000e-01
9.866854551728074796e-01 1.481891159436491412e+00 5.000000000000000000e-01
9.896094031081258402e-01 1.477135619500575814e+00 5.000000000000000000e-01
9.925326037524242473e-01 1.472408227197615771e+00 5.000000000000000000e-01
9.954550551520322532e-01 1.467708728197236523e+00 5.000000000000000000e-01
9.983767553712620257e-01 1.463036871230058100e+00 5.000000000000000000e-01
1.001297702482117469e+00 1.458392408044584476e+00 5.000000000000000000e-01
1.004217894556630686e+00 1.453775093365490489e+00 5.000000000000000000e-01
1.007137329666833780e+00 1.449184684849176064e+00 5.000000000000000000e-01
1.010056005884758967e+00 1.444620943040088035e+00 5.000000000000000000e-01
1.012973921282438239e+00 1.440083631327821134e+00 5.000000000000000000e-01
1.015891073931904032e+00 1.435572515904980806e+00 5.000000000000000000e-01
1.018807461905188561e+00 1.431087365725793425e+00 5.000000000000000000e-01
1.021723083274323596e+00 1.426627952465448823e+00 5.000000000000000000e-01
1.024637936113918180e+00 1.422194050479616667e+00 5.000000000000000000e-01
1.027552018516918908e+00 1.417785436759632534e+00 5.000000000000000000e-01
1.030465328584207585e+00 1.413401890897014956e+00 5.000000000000000000e-01
1.033377864416696656e+00 1.409043195049192843e+00 5.000000000000000000e-01
1.036289624115298347e+00 1.404709133902297458e+00 5.000000000000000000e-01
1.039200605780924880e+00 1.400399494634572806e+00 5.000000000000000000e-01
1.042110807514488924e+00 1.396114066880418392e+00 5.000000000000000000e-01
1.045020227416902703e+00 1.391852642695055708e+00 5.000000000000000000e-01
1.047928863589079107e+00 1.387615016519799349e+00 5.000000000000000000e-01
1.050836714131929472e+00 1.383400985147929863e+00 5.000000000000000000e-01
1.053743777148957506e+00 1.379210347690569272e+00 5.000000000000000000e-01
1.056650050762345749e+00 1.375042905538002902e+00 5.000000000000000000e-01
1.059555533102451319e+00 1.370898462330421230e+00 5.000000000000000000e-01
1.062460222299666635e+00 1.366776823929714224e+00 5.000000000000000000e-01
1.065364116484382784e+00 1.362677798388167716e+00 5.000000000000000000e-01
